 Height     Press        Temp        u-comp        v-comp        density       mixing ratio       ozone'
1.5            96890.       292.0000      .13           -1.9          1.185046      .003159       .0000000582
3.0           96863.38      292.0000      .1729         -1.7772       1.183822      .003192424    .0000000582
4.5           96840.2       292.0000      .2102         -1.6704       1.182757      .0032215224   .0000000582
6.31          96816.98      292.0000      .2476         -1.5633       1.181689      .0032506833   .0000000582
8.32          96793.68      292.0000      .2852         -1.4559       1.180618      .0032799359   .0000000582
10.34         96770.28      292.0000       .3229         -1.348        1.179543      .0033093094   .0000000582
12.38         96746.77      292.0000      .3608         -1.2396       1.178462      .0033388332   .0000000582
14.42         96723.11      292.0000      .3989         -1.1305       1.177375      .0033685368   .0000000582
16.48         96699.41      292.0000      .4396         -1.1273       1.176405      .0033829213   .0000000582
18.55         96675.67      292.0000      .4836         -1.2556       1.175583      .0033782612   .0000000582
20.65         96651.72      292.0000      .5279         -1.3852       1.174753      .0033735594   .0000000582
22.76         96627.53      292.0000      .5727         -1.516        1.173915      .0033688112   .0000000582
24.9          96603.08      292.0000      .618          -1.6482       1.173069      .0033640119   .0000000582
27.06         96578.35      292.0000      .6638         -1.7819       1.172212      .0033591568   .0000000582
29.25         96553.3       292.0000      .7102         -1.9173       1.171345      .0033542408   .0000000582
31.47         96527.92      292.0000      .7572         -2.0546       1.170466      .0033492591   .0000000582
33.72         96502.19      292.0000      .8048         -2.1937       1.169574      .0033442068   .0000000582
36.           96476.06      292.0000      .8532         -2.335        1.168669      .0033390788   .0000000582
38.32         96449.53      292.0000      .9024         -2.4785       1.16775       .0033338699   .0000000582
40.68         96422.55      292.0000      .9523         -2.6244       1.166816      .0033285749   .0000000582
43.08         96395.11      292.0000      1.0031        -2.7727       1.165865      .0033231886   .0000000582
45.52         96367.18      292.0000      1.0549        -2.9238       1.164898      .0033177056   .0000000582
48.01         96338.73      292.0000      1.1075        -3.0776       1.163912      .0033121203   .0000000582
50.54         96309.72      292.0000      1.1613        -3.2345       1.162908      .0033064273   .0000000582
53.13         96280.14      292.0000      1.216         -3.3944       1.161883      .0033006207   .0000000582
55.77         96249.95      292.0797      1.2719        -3.5577       1.160838      .0032946948   .0000000582
58.46         96219.13      292.2796      1.329         -3.7243       1.15977       .0032886437   .0000000582
61.21         96187.63      292.4839      1.3873        -3.8947       1.158679      .0032824613   .0000000582
64.03         96155.69      292.6071      1.4181        -4.033        1.15791       .0032725794   .0000000582
66.91         96123.34      292.6271      1.414         -4.1302       1.157552      .0032580617   .0000000582
69.85         96090.24      292.6476      1.4097        -4.2297       1.157186      .0032432064   .0000000582
72.87         96056.35      292.6686      1.4053        -4.3315       1.156811      .0032279989   .0000000582
75.95         96021.64      292.6901      1.4008        -4.4358       1.156427      .0032124238   .0000000582
79.12         95986.08      292.7121      1.3962        -4.5427       1.156033      .0031964656   .0000000582
82.36         95949.63      292.7347      1.3915        -4.6522       1.15563       .0031801083   .0000000582
85.69         95912.26      292.7579      1.3867        -4.7645       1.155216      .0031633356   .0000000582
89.1          95873.92      292.7817      1.3817        -4.8797       1.154792      .0031461307   .0000000582
92.6          95834.58      292.8062      1.3766        -4.9979       1.154357      .0031284764   .0000000582
96.19         95794.19      292.8313      1.3714        -5.1193       1.15391       .003110355    .0000000582
99.88         95752.73      292.8571      1.366         -5.2439       1.153451      .0030917485   .0000000582
103.67        95710.15      292.8836      1.3605        -5.3718       1.15298       .0030726381   .0000000582
107.56        95666.4       292.9109      1.3549        -5.5033       1.152496      .0030530049   .0000000582
111.56        95621.44      292.9389      1.349         -5.6384       1.151998      .0030328292   .0000000582
115.67        95575.22      292.9677      1.3431        -5.7773       1.151487      .0030120907   .0000000582
119.9         95527.71      292.9974      1.3369        -5.9201       1.150961      .0029907688   .0000000582
124.25        95478.85      293.0279      1.3306        -6.0669       1.150421      .0029688421   .0000000582
128.72        95428.59      293.0594      1.3241        -6.2179       1.149864      .0029462888   .0000000582
133.32        95376.89      293.0917      1.3174        -6.3733       1.149292      .0029230862   .0000000582
138.05        95323.69      293.1251      1.3105        -6.5332       1.148704      .0028992111   .0000000582
142.92        95268.93      293.1594      1.3034        -6.6977       1.148098      .0028746397   .0000000582
147.94        95212.57      293.1948      1.2962        -6.8671       1.147474      .0028493475   .0000000582
153.1         95154.55      293.2312      1.2886        -7.0414       1.146832      .002823309    .0000000582
158.42        95094.8       293.2688      1.2809        -7.2209       1.146171      .0027964983   .0000000582
163.89        95033.28      293.3075      1.273         -7.4058       1.14549       .0027688886   .0000000582
169.53        94969.91      293.3475      1.2648        -7.5962       1.144789      .0027404522   .0000000582
175.84        94898.92      293.3923      1.2556        -7.8096       1.144003      .0027085955   .0000000582
182.86        94820.03      293.4421      1.2454        -8.0466       1.14313       .0026731911   .0000000582
190.61        94732.91      293.4972      1.2341        -8.3084       1.142166      .0026340973   .0000000582
199.13        94637.23      293.5578      1.2217        -8.596        1.141108      .0025911577   .0000000582
208.44        94532.59      293.6242      1.2082        -8.9104       1.13995       .0025442007   .0000000582
218.58        94418.58      293.6967      1.1934        -9.253        1.138688      .0024930383   .0000000582
229.6         94294.74      293.7756      1.1774        -9.6251       1.137318      .0024374659   .0000000582
241.53        94160.58      293.8612      1.1601        -10.0283      1.135833      .0023772612   .0000000582
254.44        94019.98      293.867       1.2175        -10.0663      1.134581      .0023782539   .0000000582
268.36        93868.31      293.873       1.2797        -10.1056      1.133231      .0023796122   .0000000582
283.35        93704.94      293.8796      1.3468        -10.148       1.131777      .0023810752   .0000000582
299.48        93529.22      293.887       1.4189        -10.1936      1.130213      .0023826488   .0000000582
316.8         93340.45      293.8951      1.4964        -10.2425      1.128533      .0023843393   .0000000582
335.39        93137.87      293.9041      1.5795        -10.2951      1.12673       .0023861534   .0000000582
355.33        92920.67      293.9141      1.6687        -10.3514      1.124797      .0023880984   .0000000582
376.68        92687.99      293.9252      1.7642        -10.4117      1.122726      .0023901822   .0000000582
399.54        92438.89      293.9375      1.8664        -10.4763      1.120509      .0023924129   .0000000582
424.          92172.38      293.9512      1.9758        -10.5454      1.118137      .0023947996   .0000000582
450.16        91887.38      293.9664      2.0928        -10.6194      1.115601      .0023973518   .0000000582
478.11        91582.77      293.9833      2.2178        -10.6983      1.112889      .0024000797   .0000000582
507.98        91257.32      294.0022      2.3514        -10.7827      1.109993      .0024029942   .0000000582
548.01        90821.16      294.0287      2.5304        -10.8959      1.106111      .0024069      .0000000582
599.          90265.59      294.0646      2.7585        -11.0399      1.101166      .0024118753   .0000000582
661.97        89579.48      294.1122      3.0401        -11.2179      1.09506       .0024180196   .0000000582
738.18        88751.49      294.1755      3.3587        -11.48        1.087673      .0024272535   .0000000582
829.15        87806.65      294.2692      3.3338        -12.649       1.07892       .0024711491   .0000000582
936.7         86689.57      294.3897      3.3044        -14.0311      1.068571      .0025230462   .0000000582
1062.99       85377.92      294.5451      3.2698        -15.6539      1.056419      .0025839829   .0000000582
1210.54       83845.46      294.7465      3.2294        -17.5499      1.042222      .0026551779   .0000000582
1382.3        82082.96      295.2614      2.9727        -19.851       1.024881      .0028177553   .0000000582
1581.7        80126.47      297.2813      4.3633        -19.2928      1.000558      .0031927198   .0000000582
1812.74       77876.37      300.0138      6.7034        -17.4589      .971466       .0036382382   .0000000582
2080.04       75385.56      303.2098      7.4156        -20.2758      .93918        .0040853473   .0000000582
2388.93       72588.09      305.9275      9.363         -20.2358      .906006       .003923699    .0000000582
2745.6        69477.19      308.2111      8.5344        -18.6976      .871594       .0034926535   .0000000582
3157.19       66039.16      310.4839      6.4366        -18.3436      .834412       .0028647735   .0000000582
3631.92       62247.68      312.6355      9.3215        -18.3208      .794425       .0020354556   .0000000582
4179.28       58102.86      314.977       11.0133       -20.1409      .750656       .0014418882   .0000000582
4810.24       53601.6       316.3707      10.9763       -18.5321      .705529       .001241436    .0000000582
5537.4        48800.31      321.8934      13.6741       -14.4551      .648458       .0004457197   .0000000582
6375.3        43688.31      325.2243      12.2261       -15.8715      .593067       .0002144116   .0000000582
7340.71       38339.36      326.3034      16.6843       -15.2188      .538466       .0001581894   .0000000581
8452.94       32801.4       328.5817      16.8436       -8.918        .478356       .0000483653   .000000058
9734.22       27193.95      330.5561      16.146        -11.0586      .415912       .0000298666   .0000000576
11210.19      21667.55      335.6141      15.7663       -6.8705       .348296       .0000204358   .0000000548
